# n = band, j = orbital, E_n: energy, W_jn: weight
# k E_0 W_00 W_10 ... W_M0
# k E_1 W_01 W_11 ... W_M1
# ...
# k E_d W_0d W_1d ... W_dd
# Emax = 11.561605408399675
# Emin = -8.000779639826032
# num_wann = 2
# shifted by fermi energy = 0.0 [eV] 

0.000000000000000000   -8.000779639826032   0.4999999999999999 0.4999999999999999
0.004742096666844606   -7.998169643780469   0.4999999999999999 0.4999999999999999
0.009484193333689212   -7.990337048112266   0.4999999999999999 0.4999999999999999
0.014226290000533819   -7.977274095596276   0.4999999999999999 0.4999999999999998
0.018968386667378424   -7.958968074472884   0.4999999999999999 0.4999999999999999
0.023710483334223030   -7.935401640574663   0.4999999999999999 0.5000000000000001
0.028452580001067634   -7.9065532617989325  0.4999999999999999 0.4999999999999998
0.033194676667912240   -7.872397778628033   0.4999999999999999 0.4999999999999999
0.037936773334756850   -7.83290707289356    0.4999999999999999 0.5000000000000002
0.042678870001601456   -7.788050835692809   0.4999999999999999 0.4999999999999999
0.047420966668446064   -7.737797424342503   0.4999999999999999 0.4999999999999998
0.052163063335290670   -7.682114797540661   0.4999999999999999 0.4999999999999999
0.056905160002135280   -7.620971517548477   0.4999999999999999 0.4999999999999999
0.061647256668979890   -7.554337808244495   0.4999999999999999 0.4999999999999998
0.066389353335824490   -7.482186658390578   0.4999999999999999 0.5000000000000002
0.071131450002669100   -7.404494960431874   0.4999999999999999 0.5000000000000001
0.075873546669513710   -7.321244676686892   0.4999999999999999 0.4999999999999996
0.080615643336358320   -7.232424026930978   0.4999999999999999 0.5000000000000001
0.085357740003202930   -7.1380286942137054  0.4999999999999999 0.4999999999999999
0.090099836670047530   -7.038063049371944   0.4999999999999999 0.4999999999999996
0.094841933336892140   -6.932541399227585   0.4999999999999999 0.5000000000000001
0.099584030003736750   -6.821489269050781   0.4999999999999999 0.5000000000000002
0.104326126670581360   -6.704944736737579   0.4999999999999999 0.4999999999999999
0.109068223337425970   -6.582959844579386   0.4999999999999999 0.4999999999999999
0.113810320004270580   -6.455602124872901   0.4999999999999999 0.4999999999999996
0.118552416671115180   -6.322956288452453   0.4999999999999999 0.4999999999999999
0.123294513337959800   -6.1851261412242815  0.4999999999999999 0.4999999999999999
0.128036610004804400   -6.0422368138971665  0.4999999999999999 0.4999999999999996
0.132778706671649000   -5.894437415623823   0.4999999999999999 0.4999999999999999
0.137520803338493620   -5.741904254928766   0.4999999999999999 0.4999999999999998
0.142262900005338230   -5.584844813423969   0.4999999999999999 0.4999999999999999
0.147004996672182840   -5.423502712478181   0.4999999999999999 0.4999999999999999
0.151747093339027440   -5.2581639842028025  0.4999999999999999 0.4999999999999999
0.156489190005872050   -5.089165050873678   0.4999999999999999 0.4999999999999996
0.161231286672716660   -4.91690293720049    0.4999999999999999 0.4999999999999999
0.165973383339561270   -4.74184839401812    0.4999999999999999 0.4999999999999999
0.170715480006405880   -4.56456280492586    0.4999999999999999 0.4999999999999998
0.175457576673250500   -4.385719978320703   0.4999999999999999 0.5000000000000001
0.180199673340095100   -4.206134180029477   0.4999999999999999 0.4999999999999999
0.184941770006939700   -4.026795984992148   0.4999999999999999 0.5000000000000001
0.189683866673784300   -3.8489175944594782  0.4999999999999999 0.5000000000000001
0.194425963340628920   -3.6739889057630855  0.4999999999999999 0.5000000000000001
0.199168060007473530   -3.503844296417853   0.4999999999999999 0.4999999999999998
0.203910156674318140   -3.340736825277826   0.4999999999999999 0.4999999999999999
0.208652253341162750   -3.187409849120737   0.4999999999999999 0.5000000000000001
0.213394350008007360   -3.0471441264654096  0.4999999999999999 0.5000000000000001
0.218136446674851960   -2.9237408060012244  0.4999999999999999 0.5000000000000001
0.222878543341696570   -2.8213820114630925  0.4999999999999999 0.5000000000000001
0.227620640008541180   -2.744307260679455   0.4999999999999999 0.4999999999999999
0.232362736675385800   -2.6962844359348193  0.4999999999999999 0.4999999999999999
0.237104833342230400   -2.679957881498488   0.4999999999999999 0.4999999999999999
0.237104833342230400   -2.679957881498488   0.4999999999999999 0.4999999999999999
0.239842656751259180   -2.6787239904952433  0.4999999999999999 0.5000000000000001
0.242580480160287960   -2.675024083941842   0.4999999999999999 0.5000000000000001
0.245318303569316750   -2.6688634503612207  0.4999999999999999 0.4999999999999999
0.248056126978345530   -2.660250867873546   0.4999999999999999 0.4999999999999999
0.250793950387374300   -2.6491985503097837  0.4999999999999999 0.4999999999999998
0.253531773796403070   -2.6357220722503505  0.4999999999999999 0.5000000000000001
0.256269597205431850   -2.619840273464991   0.4999999999999999 0.5000000000000002
0.259007420614460640   -2.6015751433607894  0.4999999999999999 0.4999999999999998
0.261745244023489400   -2.5809516861723933  0.4999999999999999 0.4999999999999999
0.264483067432518200   -2.557997767750919   0.4999999999999999 0.4999999999999999
0.267220890841547000   -2.5327439449251625  0.4999999999999999 0.4999999999999996
0.269958714250575770   -2.5052232785196833  0.4999999999999999 0.4999999999999998
0.272696537659604550   -2.475471131218565   0.4999999999999999 0.4999999999999999
0.275434361068633340   -2.443524951560362   0.4999999999999999 0.4999999999999999
0.278172184477662100   -2.409424045438474   0.4999999999999999 0.5000000000000001
0.280910007886690900   -2.3732093365612705  0.4999999999999999 0.5000000000000001
0.283647831295719700   -2.3349231173973157  0.4999999999999999 0.4999999999999999
0.286385654704748470   -2.294608792192517   0.4999999999999999 0.4999999999999999
0.289123478113777250   -2.252310613697582   0.5000000000000001 0.4999999999999998
0.291861301522806040   -2.2080734152855794  0.4999999999999999 0.5000000000000001
0.294599124931834800   -2.161942340170244   0.4999999999999999 0.4999999999999996
0.297336948340863600   -2.113962569455974   0.4999999999999999 0.4999999999999998
0.300074771749892400   -2.0641790507599436  0.4999999999999999 0.5000000000000001
0.302812595158921170   -2.0126362291454702  0.4999999999999999 0.5000000000000002
0.305550418567949960   -1.9593777820937268  0.4999999999999999 0.4999999999999998
0.308288241976978740   -1.9044463602181023  0.4999999999999999 0.4999999999999996
0.311026065386007500   -1.8478833353923059  0.4999999999999999 0.4999999999999998
0.313763888795036300   -1.7897285579196989  0.4999999999999999 0.4999999999999999
0.316501712204065100   -1.7300201243177957  0.4999999999999999 0.5000000000000001
0.319239535613093870   -1.6687941572286944  0.4999999999999999 0.4999999999999998
0.321977359022122660   -1.606084598893698   0.4999999999999999 0.4999999999999999
0.324715182431151440   -1.5419230195492473  0.4999999999999999 0.5000000000000001
0.327453005840180200   -1.4763384420117864  0.4999999999999999 0.5000000000000001
0.330190829249209000   -1.4093571836221468  0.4999999999999999 0.5000000000000001
0.332928652658237800   -1.3410027166158365  0.4999999999999999 0.4999999999999999
0.335666476067266600   -1.2712955478751784  0.4999999999999999 0.4999999999999999
0.338404299476295360   -1.200253118903036   0.4999999999999999 0.4999999999999999
0.341142122885324140   -1.1278897267368047  0.4999999999999999 0.5000000000000001
0.343879946294352900   -1.054216466396105   0.4999999999999999 0.4999999999999999
0.346617769703381700   -0.9792411953290451  0.4999999999999999 0.5000000000000001
0.349355593112410500   -0.9029685201908833  0.4999999999999999 0.5000000000000001
0.352093416521439300   -0.8253998061562299  0.4999999999999999 0.4999999999999999
0.354831239930468060   -0.7465332088328703  0.4999999999999999 0.4999999999999999
0.357569063339496840   -0.6663637287131174  0.4999999999999999 0.4999999999999999
0.360306886748525600   -0.5848832879705781  0.4999999999999999 0.4999999999999998
0.363044710157554400   -0.5020808292954217  0.4999999999999999 0.5000000000000001
0.365782533566583200   -0.4179424363992441  0.5000000000000001 0.4999999999999998
0.368520356975612000   -0.3324514760648464  0.4999999999999999 0.4999999999999999
0.371258180384640760   -0.24558876519560524 0.4999999999999998 0.5000000000000003
0.373996003793669540   -0.15737715665784746 0.4999999999999999 0.4999999999999999
0.373996003793669540   -0.15737715665784746 0.4999999999999999 0.4999999999999999
0.379471650610905700   -0.34002651294207253 0.4999999999999999 0.4999999999999999
0.384947297428141900   -0.5318014726953351  0.4999999999999999 0.4999999999999999
0.390422944245378050   -0.7321600524156803  0.4999999999999999 0.4999999999999999
0.395898591062614200   -0.9404808671272158  0.4999999999999999 0.4999999999999999
0.401374237879850400   -1.156071085663342   0.4999999999999999 0.4999999999999999
0.406849884697086550   -1.3781753917387471  0.4999999999999999 0.4999999999999999
0.412325531514322700   -1.6059857488526357  0.4999999999999999 0.4999999999999999
0.417801178331558900   -1.8386517564659768  0.4999999999999999 0.4999999999999999
0.423276825148795060   -2.0752913794438688  0.4999999999999999 0.4999999999999999
0.428752471966031200   -2.3150018324387123  0.4999999999999999 0.4999999999999999
0.434228118783267400   -2.5568704055701463  0.4999999999999999 0.4999999999999999
0.439703765600503560   -2.7999850271715157  0.4999999999999999 0.4999999999999999
0.445179412417739730   -3.043444373144013   0.4999999999999999 0.4999999999999999
0.450655059234975900   -3.2863673501127377  0.4999999999999999 0.4999999999999999
0.456130706052212060   -3.527901800551141   0.4999999999999999 0.4999999999999999
0.461606352869448230   -3.767232301700327   0.4999999999999999 0.4999999999999999
0.467081999686684400   -4.003586955775047   0.4999999999999999 0.4999999999999999
0.472557646503920570   -4.2362430959044755  0.4999999999999999 0.4999999999999999
0.478033293321156740   -4.464531859777783   0.4999999999999999 0.4999999999999999
0.483508940138392900   -4.687841610333812   0.4999999999999999 0.4999999999999999
0.488984586955629100   -4.905620209360667   0.4999999999999999 0.4999999999999999
0.494460233772865240   -5.117376174909593   0.4999999999999999 0.4999999999999999
0.499935880590101400   -5.322678776394687   0.4999999999999999 0.4999999999999999
0.505411527407337600   -5.521157141638911   0.4999999999999999 0.4999999999999999
0.510887174224573900   -5.712498467518581   0.4999999999999999 0.4999999999999999
0.516362821041810100   -5.896445439931626   0.4999999999999999 0.4999999999999999
0.521838467859046300   -6.072792979352382   0.4999999999999999 0.4999999999999999
0.527314114676282500   -6.24138443512663    0.4999999999999999 0.4999999999999999
0.532789761493518800   -6.402107354902472   0.4999999999999999 0.4999999999999999
0.538265408310755000   -6.554888955286438   0.4999999999999999 0.4999999999999999
0.543741055127991200   -6.699691416159743   0.4999999999999999 0.4999999999999999
0.549216701945227400   -6.836507114376445   0.4999999999999999 0.4999999999999999
0.554692348762463600   -6.965353903161551   0.4999999999999999 0.4999999999999999
0.560167995579699900   -7.086270531866725   0.4999999999999999 0.4999999999999999
0.565643642396936100   -7.199312287308922   0.4999999999999999 0.4999999999999999
0.571119289214172300   -7.304546923231862   0.4999999999999999 0.4999999999999999
0.576594936031408500   -7.402050929029371   0.4999999999999999 0.4999999999999999
0.582070582848644800   -7.491906173290845   0.4999999999999999 0.4999999999999999
0.587546229665881000   -7.574196942494726   0.4999999999999999 0.4999999999999999
0.593021876483117200   -7.649007380776582   0.4999999999999999 0.4999999999999999
0.598497523300353400   -7.716419323577199   0.4999999999999999 0.4999999999999999
0.603973170117589700   -7.776510506518463   0.4999999999999999 0.4999999999999999
0.609448816934825900   -7.829353121373381   0.4999999999999999 0.4999999999999999
0.614924463752062100   -7.875012683726881   0.4999999999999999 0.4999999999999999
0.620400110569298300   -7.913547172015167   0.4999999999999999 0.4999999999999999
0.625875757386534600   -7.945006395144185   0.4999999999999999 0.4999999999999999
0.631351404203770800   -7.969431545795149   0.4999999999999999 0.4999999999999999
0.636827051021007000   -7.986854898711494   0.4999999999999999 0.4999999999999999
0.642302697838243200   -7.997299617532749   0.4999999999999999 0.4999999999999999
0.647778344655479500   -8.000779639826032   0.4999999999999999 0.4999999999999999

0.000000000000000000   11.561605408399675   0.4999999999999999 0.4999999999999999
0.004742096666844606   11.55387711570431    0.4999999999999999 0.4999999999999999
0.009484193333689212   11.53071576496474    0.4999999999999999 0.4999999999999999
0.014226290000533819   11.492191806844252   0.4999999999999999 0.4999999999999998
0.018968386667378424   11.438422222497813   0.4999999999999999 0.4999999999999999
0.023710483334223030   11.369569873201543   0.4999999999999999 0.5000000000000001
0.028452580001067634   11.285842598918101   0.4999999999999999 0.4999999999999998
0.033194676667912240   11.187492074821341   0.4999999999999999 0.4999999999999999
0.037936773334756850   11.07481243729841    0.4999999999999999 0.5000000000000002
0.042678870001601456   10.948138693385042   0.4999999999999999 0.4999999999999999
0.047420966668446064   10.807844929964578   0.4999999999999999 0.4999999999999998
0.052163063335290670   10.654342341370848   0.4999999999999999 0.4999999999999999
0.056905160002135280   10.488077096283064   0.4999999999999999 0.4999999999999999
0.061647256668979890   10.309528066997315   0.4999999999999999 0.4999999999999998
0.066389353335824490   10.119204446322208   0.4999999999999999 0.5000000000000002
0.071131450002669100   9.91764327950432     0.4999999999999999 0.5000000000000001
0.075873546669513710   9.70540694078369     0.4999999999999999 0.4999999999999996
0.080615643336358320   9.48308058646824     0.4999999999999999 0.5000000000000001
0.085357740003202930   9.251269618876982    0.4999999999999999 0.4999999999999999
0.090099836670047530   9.010597198239898    0.4999999999999999 0.4999999999999996
0.094841933336892140   8.761701842797088    0.4999999999999999 0.5000000000000001
0.099584030003736750   8.505235161095019    0.4999999999999999 0.5000000000000002
0.104326126670581360   8.24185976507745     0.4999999999999999 0.4999999999999999
0.109068223337425970   7.972247418335461    0.4999999999999999 0.4999999999999999
0.113810320004270580   7.697077481241906    0.4999999999999999 0.4999999999999996
0.118552416671115180   7.41703572421938     0.4999999999999999 0.4999999999999999
0.123294513337959800   7.1328135928334255   0.4999999999999999 0.4999999999999999
0.128036610004804400   6.845108024774683    0.4999999999999999 0.4999999999999996
0.132778706671649000   6.554621940442567    0.4999999999999999 0.4999999999999999
0.137520803338493620   6.262065557566636    0.4999999999999999 0.4999999999999998
0.142262900005338230   5.9681587184850216   0.4999999999999999 0.4999999999999999
0.147004996672182840   5.673634469478643    0.4999999999999999 0.4999999999999999
0.151747093339027440   5.37924419898944     0.4999999999999999 0.4999999999999999
0.156489190005872050   5.085764730715386    0.4999999999999999 0.4999999999999996
0.161231286672716660   4.79400788450634     0.4999999999999999 0.4999999999999999
0.165973383339561270   4.504833169068059    0.4999999999999999 0.4999999999999999
0.170715480006405880   4.219164460681471    0.4999999999999999 0.4999999999999998
0.175457576673250500   3.938011750681365    0.4999999999999999 0.5000000000000001
0.180199673340095100   3.6624992952164357   0.4999999999999999 0.4999999999999999
0.184941770006939700   3.3939017225097503   0.4999999999999999 0.5000000000000001
0.189683866673784300   3.1336897197500475   0.4999999999999999 0.5000000000000001
0.194425963340628920   2.8835865617032326   0.4999999999999999 0.5000000000000001
0.199168060007473530   2.645635417669058    0.4999999999999999 0.4999999999999998
0.203910156674318140   2.422274114669633    0.4999999999999999 0.4999999999999999
0.208652253341162750   2.2164073311681793   0.4999999999999999 0.5000000000000001
0.213394350008007360   2.031454270243006    0.4999999999999999 0.5000000000000001
0.218136446674851960   1.8713321883292169   0.4999999999999999 0.5000000000000001
0.222878543341696570   1.7403174720915278   0.4999999999999999 0.5000000000000001
0.227620640008541180   1.6427224842284165   0.4999999999999999 0.4999999999999999
0.232362736675385800   1.5823668810678537   0.4999999999999999 0.4999999999999999
0.237104833342230400   1.5619259664260192   0.4999999999999999 0.4999999999999999
0.237104833342230400   1.5619259664260192   0.4999999999999999 0.4999999999999999
0.239842656751259180   1.5616034830488537   0.4999999999999999 0.5000000000000001
0.242580480160287960   1.5606332760576085   0.4999999999999999 0.5000000000000001
0.245318303569316750   1.5590070900306263   0.4999999999999999 0.4999999999999999
0.248056126978345530   1.556711216375792    0.4999999999999999 0.4999999999999999
0.250793950387374300   1.5537265687125004   0.4999999999999999 0.4999999999999998
0.253531773796403070   1.550028787840033    0.4999999999999999 0.5000000000000001
0.256269597205431850   1.5455883757299675   0.5000000000000001 0.5000000000000001
0.259007420614460640   1.5403708578250965   0.4999999999999999 0.4999999999999998
0.261745244023489400   1.5343369727764238   0.4999999999999999 0.4999999999999999
0.264483067432518200   1.5274428886038827   0.4999999999999999 0.4999999999999999
0.267220890841547000   1.5196404441263822   0.4999999999999999 0.4999999999999996
0.269958714250575770   1.5108774143733679   0.4999999999999999 0.4999999999999998
0.272696537659604550   1.5010977985641785   0.4999999999999999 0.4999999999999999
0.275434361068633340   1.4902421291235952   0.4999999999999999 0.4999999999999999
0.278172184477662100   1.478247800093011    0.4999999999999999 0.5000000000000001
0.280910007886690900   1.4650494131970486   0.4999999999999999 0.5000000000000001
0.283647831295719700   1.4505791397358179   0.4999999999999999 0.4999999999999999
0.286385654704748470   1.4347670963938812   0.4999999999999999 0.4999999999999999
0.289123478113777250   1.4175417329886604   0.4999999999999999 0.4999999999999999
0.291861301522806040   1.3988302301241042   0.4999999999999999 0.5000000000000001
0.294599124931834800   1.3785589046698932   0.4999999999999999 0.4999999999999996
0.297336948340863600   1.3566536209527764   0.4999999999999999 0.4999999999999998
0.300074771749892400   1.3330402055248867   0.4999999999999999 0.5000000000000001
0.302812595158921170   1.307644863364049    0.4999999999999999 0.5000000000000002
0.305550418567949960   1.2803945933633532   0.4999999999999999 0.4999999999999998
0.308288241976978740   1.2512176009813791   0.4999999999999999 0.4999999999999996
0.311026065386007500   1.2200437059504428   0.4999999999999999 0.4999999999999998
0.313763888795036300   1.186804742977744    0.4999999999999999 0.4999999999999999
0.316501712204065100   1.151434953423129    0.4999999999999999 0.5000000000000001
0.319239535613093870   1.1138713659970334   0.4999999999999999 0.4999999999999998
0.321977359022122660   1.0740541645924726   0.4999999999999999 0.4999999999999999
0.324715182431151440   1.0319270414454245   0.4999999999999999 0.5000000000000001
0.327453005840180200   0.9874375339079368   0.4999999999999999 0.5000000000000001
0.330190829249209000   0.9405373432172562   0.4999999999999999 0.5000000000000001
0.332928652658237800   0.8911826337515506   0.4999999999999999 0.4999999999999999
