# n = band, j = orbital, E_n: energy, W_jn: weight
# k E_0 W_00 W_10 ... W_M0
# k E_1 W_01 W_11 ... W_M1
# ...
# k E_d W_0d W_1d ... W_dd
# Emax = 11.705427330074091
# Emin = -8.066259617745736
# num_wann = 2
# shifted by fermi energy = -0.1863 [eV] 

0.000000000000000000   -7.879959617745736   0.4999999999991497 0.5000000000008503
0.005475646817236179   -7.873957867610659   0.4999999999993772 0.5000000000006226
0.010951293634472357   -7.8569595194451365  0.4999999999997463 0.5000000000002537
0.016426940451708536   -7.831506548130439   0.5000000000001106 0.4999999999998892
0.021902587268944715   -7.800476931352534   0.5000000000003197 0.4999999999996801
0.027378234086180894   -7.765755090019686   0.5000000000002738 0.4999999999997262
0.032853880903417070   -7.727413791384771   0.4999999999999649 0.5000000000000351
0.038329527720653250   -7.683779389886264   0.4999999999994854 0.5000000000005147
0.043805174537889430   -7.632305197848729   0.4999999999989969 0.5000000000010031
0.049280821355125610   -7.570786437435395   0.4999999999986724 0.5000000000013274
0.054756468172361794   -7.498311100124659   0.4999999999986281 0.5000000000013717
0.060232114989597976   -7.415512867370345   0.4999999999988723 0.5000000000011279
0.065707761806834160   -7.324070533023618   0.4999999999992951 0.500000000000705
0.071183408624070340   -7.225777161262502   0.4999999999997096 0.5000000000002905
0.076659055441306520   -7.12168705782057    0.4999999999999316 0.5000000000000684
0.082134702258542700   -7.011758244068878   0.4999999999998672 0.5000000000001328
0.087610349075778890   -6.895110748962227   0.4999999999995645 0.5000000000004353
0.093085995893015070   -6.770689021795477   0.49999999999920103 0.5000000000007988
0.098561642710251250   -6.6379279827703455  0.4999999999990029 0.5000000000009971
0.104037289527487430   -6.49706446909843    0.4999999999991318 0.5000000000008682
0.109512936344723620   -6.348965980883478   0.49999999999959355 0.5000000000004066
0.114988583161959800   -6.194625547381009   0.5000000000002169 0.49999999999978306
0.120464229979195980   -6.034640237022675   0.5000000000007276 0.4999999999992723
0.125939876796432150   -5.868968442470767   0.5000000000008892 0.49999999999911077
0.131415523613668320   -5.697076959513684   0.5000000000006464 0.4999999999993537
0.136891170430904490   -5.518359743012041   0.5000000000001912 0.4999999999998088
0.142366817248140650   -5.332568264234145   0.49999999999990474 0.5000000000000953
0.147842464065376820   -5.140010968466965   0.500000000000183 0.499999999999817
0.153318110882613000   -4.94143273966414    0.5000000000012185 0.49999999999878153
0.158793757699849160   -4.7376755553002825  0.5000000000028445 0.4999999999971554
0.164269404517085330   -4.529336603890474   0.5000000000045306 0.49999999999546924
0.169745051334321500   -4.3166201764406456  0.5000000000055586 0.49999999999444145
0.175220698151557660   -4.099447650409532   0.5000000000053225 0.4999999999946775
0.180696344968793830   -3.877732370086295   0.5000000000036255 0.4999999999963744
0.186171991786030000   -3.651638129309039   0.5000000000008321 0.4999999999991678
0.191647638603266170   -3.4216682192919907  0.49999999999779093 0.500000000002209
0.197123285420502340   -3.188550904741876   0.4999999999955391 0.5000000000044609
0.202598932237738500   -2.9530182017084123  0.4999999999948927 0.5000000000051072
0.208074579054974670   -2.7156367433427966  0.4999999999960941 0.5000000000039059
0.213550225872210840   -2.4768075757847967  0.4999999999986735 0.5000000000013263
0.219025872689447000   -2.2369364796475337  0.5000000000016009 0.4999999999983989
0.224501519506683180   -1.9966624229261332  0.5000000000036797 0.4999999999963202
0.229977166323919350   -1.7569905485328037  0.5000000000040258 0.4999999999959742
0.235452813141155510   -1.5192326352581336  0.5000000000024405 0.4999999999975595
0.240928459958391680   -1.2847765883196967  0.4999999999995361 0.5000000000004639
0.246404106775627850   -1.0548139125188842  0.49999999999657774 0.500000000003422
0.251879753592864000   -0.8301844249273048  0.49999999999513417 0.5000000000048658
0.257355400410100200   -0.6114318181701476  0.49999999999677447 0.5000000000032253
0.262831047227336360   -0.3990408566556184  0.5000000000034336 0.4999999999965663
0.268306694044572500   -0.1937194458297409  0.5000000000224231 0.49999999997757694
0.273782340861808700   0.0034406211617626636 0.5000002769856563 0.49999972301434376
0.273782340861808700   0.0034406211617626636 0.5000002769856563 0.49999972301434376
0.276520164270837500   -0.09172896307410247 0.5000000000568056 0.49999999994319444
0.279257987679866260   -0.1851855900083789  0.5000000000232674 0.4999999999767324
0.281995811088895040   -0.27687360548801965 0.5000000000107366 0.4999999999892633
0.284733634497923800   -0.3667402907904692  0.5000000000039427 0.49999999999605726
0.287471457906952600   -0.45473057240303816 0.4999999999998964 0.5000000000001038
0.290209281315981400   -0.5407930560716864  0.49999999999760597 0.5000000000023939
0.292947104725010200   -0.6248858776834583  0.4999999999966052 0.5000000000033946
0.295684928134038960   -0.7069815390540489  0.4999999999965895 0.5000000000034106
0.298422751543067740   -0.7870700390989606  0.49999999999730155 0.5000000000026981
0.301160574952096500   -0.8651598535384392  0.49999999999849654 0.5000000000015032
0.303898398361125300   -0.9412766229242658  0.4999999999999379 0.500000000000062
0.306636221770154100   -1.0154597328068373  0.5000000000014051 0.4999999999985951
0.309374045179182900   -1.0877572615608389  0.5000000000027064 0.4999999999972937
0.312111868588211660   -1.1582199862141944  0.5000000000036929 0.4999999999963069
0.314849691997240440   -1.2268952432081848  0.500000000004268 0.49999999999573175
0.317587515406269200   -1.293821426843092   0.5000000000043935 0.49999999999560646
0.320325338815298000   -1.3590237813910926  0.5000000000040894 0.49999999999591077
0.323063162224326800   -1.4225119298081934  0.5000000000034276 0.4999999999965726
0.325800985633355600   -1.4842793211182281  0.5000000000025209 0.4999999999974791
0.328538809042384360   -1.5443045126971973  0.5000000000015083 0.4999999999984917
0.331276632451413140   -1.6025539724016113  0.5000000000005367 0.49999999999946354
0.334014455860441930   -1.658985919071297   0.49999999999974365 0.5000000000002561
0.336752279269470700   -1.7135546359311025  0.4999999999992406 0.5000000000007594
0.339490102678499500   -1.7662146934992895  0.4999999999991003 0.5000000000008993
0.342227926087528300   -1.8169245976176434  0.499999999999348 0.5000000000006519
0.344965749496557060   -1.8656495147171437  0.4999999999999583 0.5000000000000419
0.347703572905585840   -1.9123628944099031  0.5000000000008608 0.49999999999913936
0.350441396314614630   -1.9570469806940414  0.5000000000019468 0.49999999999805317
0.353179219723643400   -1.999692351447443   0.5000000000030839 0.49999999999691624
0.355917043132672200   -2.040296731660123   0.500000000004133 0.499999999995867
0.358654866541701000   -2.078863378230674   0.5000000000049647 0.49999999999503514
0.361392689950729760   -2.1153993324567364  0.5000000000054761 0.4999999999945239
0.364130513359758550   -2.1499137891666806  0.500000000005603 0.4999999999943972
0.366868336768787330   -2.1824167540828054  0.5000000000053282 0.4999999999946718
0.369606160177816100   -2.2129180719453476  0.5000000000046835 0.49999999999531647
0.372343983586844900   -2.2414268250176392  0.5000000000037464 0.4999999999962535
0.375081806995873700   -2.267951038861049   0.5000000000026306 0.4999999999973692
0.377819630404902460   -2.292497597787073   0.5000000000014716 0.49999999999852873
0.380557453813931250   -2.3150722674934348  0.5000000000004121 0.49999999999958794
0.383295277222960030   -2.3356797421984012  0.4999999999995834 0.5000000000004167
0.386033100631988800   -2.354323668700094   0.49999999999909017 0.5000000000009096
0.388770924041017600   -2.3710066387324895  0.49999999999899913 0.5000000000010006
0.391508747450046400   -2.385730172970235   0.49999999999932887 0.5000000000006711
0.394246570859075160   -2.3984947373717014  0.5000000000000488 0.49999999999995137
0.396984394268103950   -2.409299832240129   0.5000000000010835 0.4999999999989167
0.399722217677132730   -2.4181441783887223  0.5000000000023215 0.4999999999976787
0.402460041086161500   -2.4250259990438985  0.5000000000036267 0.4999999999963732
0.405197864495190300   -2.429943368561566   0.5000000000048579 0.49999999999514205
0.407935687904219100   -2.43289457739497    0.5000000000058835 0.4999999999941163
0.410673511313247860   -2.4338784526510118  0.5000000000065966 0.49999999999340317
0.410673511313247860   -2.4338784526510118  0.5000000000065966 0.49999999999340317
0.415415607980092470   -2.4503404842760483  0.500000000007731 0.4999999999922689
0.420157704646937100   -2.49863478043847    0.5000000000074712 0.49999999999252864
0.424899801313781700   -2.575840494268612   0.5000000000060295 0.4999999999939701
0.429641897980626300   -2.678027494096587   0.5000000000037798 0.49999999999622025
0.434383994647470900   -2.801047397009977   0.5000000000011574 0.49999999999884226
0.439126091314315500   -2.94097277327021    0.49999999999861555 0.5000000000013844
0.443868187981160100   -3.094198811160715   0.4999999999965988 0.5000000000034014
0.448610284648004730   -3.257420310896859   0.49999999999549843 0.5000000000045014
0.453352381314849340   -3.4276722378069966  0.49999999999557804 0.5000000000044218
0.458094477981693950   -3.6024690386906233  0.49999999999689554 0.5000000000031046
0.462836574648538560   -3.7799380215468514  0.49999999999925804 0.500000000000742
0.467578671315383170   -3.9588118977723026  0.5000000000022408 0.49999999999775924
0.472320767982227800   -4.13823358682326    0.5000000000052717 0.4999999999947285
0.477062864649072400   -4.317460117154567   0.5000000000077656 0.4999999999922344
0.481804961315917000   -4.495632941321838   0.5000000000092661 0.49999999999073386
0.486547057982761600   -4.6717507058147865  0.5000000000095486 0.4999999999904514
0.491289154649606200   -4.8448548299617515  0.5000000000086631 0.49999999999133726
0.496031251316450800   -5.014298107573107   0.500000000006899 0.4999999999931009
0.500773347983295400   -5.1799046420706425  0.500000000004694 0.49999999999530614
0.505515444650140000   -5.341890915636635   0.5000000000025134 0.4999999999974867
0.510257541316984500   -5.500566724118202   0.500000000000739 0.4999999999992612
0.514999637983829100   -5.655977863348347   0.49999999999959543 0.5000000000004046
0.519741734650673600   -5.807703817717918   0.4999999999991312 0.5000000000008686
0.524483831317518200   -5.954951690381246   0.49999999999924405 0.500000000000756
0.529225927984362700   -6.09692031116418    0.4999999999997354 0.5000000000002647
0.533968024651207300   -6.233226396059556   0.5000000000003697 0.49999999999963046
0.538710121318051800   -6.364105611045958   0.5000000000009311 0.49999999999906886
0.543452217984896400   -6.490214554025038   0.5000000000012651 0.49999999999873473
0.548194314651741000   -6.612123719217622   0.5000000000013038 0.4999999999986961
0.552936411318585500   -6.729819052320631   0.5000000000010706 0.4999999999989296
0.557678507985430100   -6.842538198311951   0.5000000000006606 0.49999999999933953
0.562420604652274600   -6.949060138905053   0.5000000000002042 0.49999999999979566
0.567162701319119200   -7.048312327621715   0.49999999999982186 0.5000000000001779
0.571904797985963700   -7.139998756937005   0.4999999999995876 0.5000000000004122
0.576646894652808300   -7.224913760413386   0.4999999999995102 0.50000000000049
0.581388991319652800   -7.304702687047921   0.4999999999995405 0.5000000000004595
0.586131087986497400   -7.381093726987458   0.49999999999959827 0.5000000000004017
0.590873184653341900   -7.454970027445838   0.49999999999961087 0.500000000000389
0.595615281320186500   -7.525823129665839   0.499999999999546 0.500000000000454
0.600357377987031000   -7.591930900248684   0.49999999999942496 0.5000000000005748
0.605099474653875600   -7.651157761038704   0.4999999999993105 0.5000000000006892
0.609841571320720100   -7.7019299234876835  0.4999999999992728 0.5000000000007269
0.614583667987564700   -7.743904578006284   0.49999999999935113 0.5000000000006485
0.619325764654409200   -7.778051886793948   0.49999999999953043 0.5000000000004695
0.624067861321253800   -7.806133908992522   0.4999999999997408 0.5000000000002591
0.628809957988098400   -7.8298190835087285  0.49999999999988687 0.5000000000001132
0.633552054654942900   -7.849862967042193   0.4999999999998905 0.5000000000001094
0.638294151321787500   -7.865793008615676   0.4999999999997286 0.5000000000002716
0.643036247988632000   -7.876277158178243   0.49999999999944816 0.500000000000552
0.647778344655476600   -7.879959617745736   0.4999999999991497 0.5000000000008503

0.000000000000000000   11.89172733007409    0.5000000000008503 0.4999999999991497
0.005475646817236179   11.8780774183037     0.5000000000006226 0.4999999999993772
0.010951293634472357   11.838139387921721   0.5000000000002537 0.4999999999997463
0.016426940451708536   11.774508685157185   0.4999999999998892 0.5000000000001106
0.021902587268944715   11.690258033488078   0.4999999999996801 0.5000000000003197
0.027378234086180894   11.587696652132786   0.4999999999997262 0.5000000000002738
0.032853880903417070   11.467585056379207   0.5000000000000351 0.4999999999999649
0.038329527720653250   11.329164614610765   0.5000000000005147 0.4999999999994854
0.043805174537889430   11.17095996742761    0.5000000000010031 0.4999999999989969
0.049280821355125610   10.991941363740395   0.5000000000013274 0.4999999999986724
0.054756468172361794   10.792474218923012   0.5000000000013717 0.4999999999986281
0.060232114989597976   10.574606786147182   0.5000000000011279 0.4999999999988723
0.065707761806834160   10.341583417397569   0.500000000000705 0.4999999999992951
0.071183408624070340   10.096847204668354   0.5000000000002905 0.4999999999997096
0.076659055441306520   9.84302571407765     0.5000000000000684 0.4999999999999316
0.082134702258542700   9.581371581918422    0.5000000000001328 0.4999999999998672
0.087610349075778890   9.311880407141565    0.5000000000004353 0.4999999999995645
0.093085995893015070   9.03396773204597     0.5000000000007988 0.49999999999920103
0.098561642710251250   8.747328686532533    0.5000000000009971 0.4999999999990029
0.104037289527487430   8.45255000528012     0.5000000000008682 0.4999999999991318
0.109512936344723620   8.151206197299489    0.5000000000004066 0.49999999999959355
0.114988583161959800   7.845451801383505    0.49999999999978306 0.5000000000002169
0.120464229979195980   7.537369442980845    0.4999999999992723 0.5000000000007276
0.125939876796432150   7.228426228591958    0.49999999999911077 0.5000000000008892
0.131415523613668320   6.919295278106396    0.4999999999993537 0.5000000000006464
0.136891170430904490   6.6100813877743985   0.4999999999998088 0.5000000000001912
0.142366817248140650   6.300774638915118    0.5000000000000953 0.49999999999990474
0.147842464065376820   5.99165641807373     0.499999999999817 0.500000000000183
0.153318110882613000   5.683441360443652    0.49999999999878153 0.5000000000012185
0.158793757699849160   5.3771103583613025   0.4999999999971554 0.5000000000028445
0.164269404517085330   5.073570530250812    0.49999999999546924 0.5000000000045306
0.169745051334321500   4.773366792443209    0.49999999999444145 0.5000000000055586
0.175220698151557660   4.476622857206571    0.4999999999946775 0.5000000000053225
0.180696344968793830   4.18324185339558     0.4999999999963744 0.5000000000036255
0.186171991786030000   3.8932380326716514   0.4999999999991678 0.5000000000008321
0.191647638603266170   3.6069931757288796   0.500000000002209 0.49999999999779093
0.197123285420502340   3.3252769268330855   0.5000000000044609 0.4999999999955391
0.202598932237738500   3.0490102821298857   0.5000000000051072 0.4999999999948927
0.208074579054974670   2.778903591741271    0.5000000000039059 0.4999999999960941
0.213550225872210840   2.515176970245242    0.5000000000013263 0.4999999999986735
0.219025872689447000   2.257528286639443    0.4999999999983989 0.5000000000016009
0.224501519506683180   2.0053762391427217   0.4999999999963202 0.5000000000036797
0.229977166323919350   1.7582512225471882   0.4999999999959742 0.5000000000040258
0.235452813141155510   1.5161219882945585   0.4999999999975595 0.5000000000024405
0.240928459958391680   1.2794793387621322   0.5000000000004639 0.4999999999995361
0.246404106775627850   1.0491313443766925   0.500000000003422 0.49999999999657774
0.251879753592864000   0.8258242667687261   0.5000000000048658 0.49999999999513417
0.257355400410100200   0.609901123155247    0.5000000000032253 0.49999999999677447
0.262831047227336360   0.4011911065798959   0.4999999999965663 0.5000000000034336
0.268306694044572500   0.19919711297094872  0.49999999997757694 0.5000000000224231
0.273782340861808700   0.003483386000788985 0.49999972301434376 0.5000002769856563
0.273782340861808700   0.003483386000788985 0.49999972301434376 0.5000002769856563
0.276520164270837500   0.09821066513777707  0.4999999999431946 0.5000000000568053
0.279257987679866260   0.1902585380828742   0.4999999999767324 0.5000000000232674
0.281995811088895040   0.279480748326094    0.49999999998926314 0.5000000000107366
0.284733634497923800   0.36577976637568577  0.49999999999605743 0.5000000000039428
0.287471457906952600   0.44909806040427724  0.5000000000001037 0.4999999999998966
0.290209281315981400   0.5294151397201444   0.500000000002394 0.49999999999760597
0.292947104725010200   0.6067401367535532   0.5000000000033946 0.4999999999966052
0.295684928134038960   0.6811010093489681   0.5000000000034105 0.4999999999965897
0.298422751543067740   0.7525319596544505   0.5000000000026984 0.4999999999973014
0.301160574952096500   0.8210609556920281   0.5000000000015035 0.49999999999849637
0.303898398361125300   0.8866992607778896   0.500000000000062 0.4999999999999379
0.306636221770154100   0.9494346164807009   0.499999999998595 0.5000000000014054
0.309374045179182900   1.0092292187087273   0.4999999999972934 0.5000000000027064
0.312111868588211660   1.0660229421142495   0.4999999999963069 0.5000000000036929
0.314849691997240440   1.1197415016132937   0.49999999999573175 0.500000000004268
0.317587515406269200   1.1703085029196025   0.49999999999560635 0.5000000000043937
0.320325338815298000   1.2176597370833775   0.4999999999959106 0.5000000000040894
0.323063162224326800   1.2617577093701076   0.4999999999965724 0.5000000000034274
0.325800985633355600   1.3026043190454903   0.49999999999747896 0.5000000000025209
0.328538809042384360   1.3402498383165333   0.4999999999984917 0.5000000000015085
0.331276632451413140   1.374796843131014    0.49999999999946326 0.5000000000005369
0.334014455860441930   1.4063984506912866   0.5000000000002564 0.49999999999974354
0.336752279269470700   1.4352510129778138   0.5000000000007594 0.4999999999992406
0.339490102678499500   1.4615821834344735   0.5000000000008996 0.4999999999991001
0.342227926087528300   1.4856359016289504   0.5000000000006521 0.499999999999348
0.344965749496557060   1.5076562372073896   0.5000000000000416 0.4999999999999585
0.347703572905585840   1.5278721449621766   0.4999999999991392 0.500000000000861
0.350441396314614630   1.546484996266605    0.49999999999805317 0.5000000000019467
0.353179219723643400   1.5636603022256856   0.4999999999969159 0.5000000000030842
0.355917043132672200   1.5795244034476454   0.49999999999586714 0.500000000004133
0.358654866541701000   1.5941661706784036   0.49999999999503514 0.5000000000049648
0.361392689950729760   1.6076430517929199   0.4999999999945239 0.5000000000054763
0.364130513359758550   1.6199902202144987   0.4999999999943972 0.5000000000056031
0.366868336768787330   1.631231211849104    0.499999999994672 0.5000000000053281
0.369606160177816100   1.6413883309611565   0.49999999999531647 0.5000000000046834
