# k Energy [eV] 
# Emax = 11.705427330103646
# Emin = -8.066259617775291
# num_wann = 2
# shifted by fermi energy = -0.1863 [eV] 

0.000000000000000000   -7.879959617775291   
0.005475646817236179   -7.875495456360652   
0.010951293634472357   -7.862331337024522   
0.016426940451708536   -7.841068473244682   
0.021902587268944715   -7.8124621069423235  
0.027378234086180894   -7.777152338919563   
0.032853880903417070   -7.735445674473137   
0.038329527720653250   -7.6872240600081465  
0.043805174537889430   -7.632005442787872   
0.049280821355125610   -7.569122263389548   
0.054756468172361794   -7.497945331842751   
0.060232114989597976   -7.418073422730816   
0.065707761806834160   -7.329431960267928   
0.071183408624070340   -7.232263635368113   
0.076659055441306520   -7.127031863617839   
0.082134702258542700   -7.0142811072571325  
0.087610349075778890   -6.894501759223099   
0.093085995893015070   -6.768035607110519   
0.098561642710251250   -6.635039180335366   
0.104037289527487430   -6.495504112194172   
0.109512936344723620   -6.349320081725391   
0.114988583161959800   -6.19635780262424    
0.120464229979195980   -6.036546681594102   
0.125939876796432150   -5.869924544339015   
0.131415523613668320   -5.696645904332191   
0.136891170430904490   -5.51694974734178    
0.142366817248140650   -5.331103654740156   
0.147842464065376820   -5.1393515747063265  
0.153318110882613000   -4.941891461802034   
0.158793757699849160   -4.738894786162532   
0.164269404517085330   -4.530558014056395   
0.169745051334321500   -4.317157456345744   
0.175220698151557660   -4.099074296667648   
0.180696344968793830   -3.8767706613531114  
0.186171991786030000   -3.6507246903878774  
0.191647638603266170   -3.421358812709754   
0.197123285420502340   -3.1890055688493852  
0.202598932237738500   -2.9539413997488078  
0.208074579054974670   -2.716485586681048   
0.213550225872210840   -2.4771251495128555  
0.219025872689447000   -2.2366066385844716  
0.224501519506683180   -1.9959449116908654  
0.229977166323919350   -1.756335064678773   
0.235452813141155510   -1.5189999784440649  
0.240928459958391680   -1.2850391846543903  
0.246404106775627850   -1.055347135653491   
0.251879753592864000   -0.8306378184335633  
0.257355400410100200   -0.6115623898414503  
0.262831047227336360   -0.3988616006737201  
0.268306694044572500   -0.19347731891579337 
0.273782340861808700   0.0034341074583540687 
0.273782340861808700   0.0034341074583540687 
0.276520164270837500   -0.09168667466325878 
0.279257987679866260   -0.18509126392177336 
0.281995811088895040   -0.27672889015317115 
0.284733634497923800   -0.3665552648996123  
0.287471457906952600   -0.45452251919942166 
0.290209281315981400   -0.5405838855832376  
0.292947104725010200   -0.6246985930452508  
0.295684928134038960   -0.7068363199923422  
0.298422751543067740   -0.7869805989538022  
0.301160574952096500   -0.8651307013358785  
0.303898398361125300   -0.9413017311946655  
0.306636221770154100   -1.0155228939309486  
0.309374045179182900   -1.0878341438846189  
0.312111868588211660   -1.1582816197932804  
0.314849691997240440   -1.2269124212536486  
0.317587515406269200   -1.2937693455324724  
0.320325338815298000   -1.358886187546676   
0.323063162224326800   -1.42228411371342    
0.325800985633355600   -1.4839694694693641  
0.328538809042384360   -1.5439331937773362  
0.331276632451413140   -1.602151817854333   
0.334014455860441930   -1.6585898449321503  
0.336752279269470700   -1.7132031645868158  
0.339490102678499500   -1.765943064304819   
0.342227926087528300   -1.8167603699085701  
0.344965749496557060   -1.865609274245423   
0.347703572905585840   -1.9124504913776834  
0.350441396314614630   -1.9572534866218405  
0.353179219723643400   -1.999997663045329   
0.355917043132672200   -2.040672513939019   
0.358654866541701000   -2.0792768622232716  
0.361392689950729760   -2.1158173899998394  
0.364130513359758550   -2.150306708282377   
0.366868336768787330   -2.182761227633131   
0.369606160177816100   -2.213199069169042   
0.372343983586844900   -2.2416382099524093  
0.375081806995873700   -2.2680949969628363  
0.377819630404902460   -2.292583099833995   
0.380557453813931250   -2.3151129133033455  
0.383295277222960030   -2.335691372426985   
0.386033100631988800   -2.3543221105754757  
0.388770924041017600   -2.371005872583029   
0.391508747450046400   -2.385741091381413   
0.394246570859075160   -2.398524542895951   
0.396984394268103950   -2.409352007444687   
0.399722217677132730   -2.4182188831781346  
0.402460041086161500   -2.425120715540959   
0.405197864495190300   -2.4300536240617587  
0.407935687904219100   -2.433014622028084   
0.410673511313247860   -2.434001834222436   
0.410673511313247860   -2.434001834222436   
0.415415607980092470   -2.4504051487291165  
0.420157704646937100   -2.498617199940976   
0.424899801313781700   -2.575890398857263   
0.429641897980626300   -2.6783415733328617  
0.434383994647470900   -2.8016592891018606  
0.439126091314315500   -2.9416649640664656  
0.443868187981160100   -3.0946287551490617  
0.448610284648004730   -3.2573673566090804  
0.453352381314849340   -3.427210361037228   
0.458094477981693950   -3.60192261637896    
0.462836574648538560   -3.7796388409295916  
0.467578671315383170   -3.9588277441403488  
0.472320767982227800   -4.13827310889105    
0.477062864649072400   -4.31704780114027    
0.481804961315917000   -4.494463473743637   
0.486547057982761600   -4.669995885894811   
0.491289154649606200   -4.843202078967363   
0.496031251316450800   -5.0136525253916     
0.500773347983295400   -5.180896443109873   
0.505515444650140000   -5.344465799766426   
0.510257541316984500   -5.503910651996776   
0.514999637983829100   -5.658851381258677   
0.519741734650673600   -5.809032153741687   
0.524483831317518200   -5.954359285175963   
0.529225927984362700   -6.094904672533879   
0.533968024651207300   -6.230853746042912   
0.538710121318051800   -6.362392042357941   
0.543452217984896400   -6.489559486607787   
0.548194314651741000   -6.612139467455034   
0.552936411318585500   -6.729656197277364   
0.557678507985430100   -6.841507734340651   
0.562420604652274600   -6.9471853428076615  
0.567162701319119200   -7.0464757871045105  
0.571904797985963700   -7.1395486026620505  
0.576646894652808300   -7.2268859490072295  
0.581388991319652800   -7.3090812663400415  
0.586131087986497400   -7.386585237690137   
0.590873184653341900   -7.459501297876178   
0.595615281320186500   -7.527520781138114   
0.600357377987031000   -7.590035136513101   
0.605099474653875600   -7.646382998292199   
0.609841571320720100   -7.696121472947484   
0.614583667987564700   -7.739194958394845   
0.619325764654409200   -7.775923683151806   
0.624067861321253800   -7.806822327677142   
0.628809957988098400   -7.832340926960758   
0.633552054654942900   -7.852655869327305   
0.638294151321787500   -7.8676114273519735  
0.643036247988632000   -7.876834916078129   
0.647778344655476600   -7.879959617775291   

0.000000000000000000   11.891727330103645   
0.005475646817236179   11.879615007053687   
0.010951293634472357   11.843511205501098   
0.016426940451708536   11.784070610271417   
0.021902587268944715   11.70224320907786    
0.027378234086180894   11.59909390103266    
0.032853880903417070   11.475616939467574   
0.038329527720653250   11.332609284732648   
0.043805174537889430   11.170660212366755   
0.049280821355125610   10.990277189694545   
0.054756468172361794   10.7921084506411     
0.060232114989597976   10.577167341507646   
0.065707761806834160   10.346944844641872   
0.071183408624070340   10.103333678773959   
0.076659055441306520   9.848370519874909    
0.082134702258542700   9.583894445106672    
0.087610349075778890   9.31127141740244     
0.093085995893015070   9.031314317361012    
0.098561642710251250   8.744439884097556    
0.104037289527487430   8.45098964837586     
0.109512936344723620   8.151560298141401    
0.114988583161959800   7.847184056626731    
0.120464229979195980   7.539275887552266    
0.125939876796432150   7.229382330460201    
0.131415523613668320   6.9188642229249      
0.136891170430904490   6.608671392104135    
0.142366817248140650   6.299310029421127    
0.147842464065376820   5.99099702431309     
0.153318110882613000   5.683900082581542    
0.158793757699849160   5.37832958922355     
0.164269404517085330   5.074791940416731    
0.169745051334321500   4.773904072348308    
0.175220698151557660   4.476249503464689    
0.180696344968793830   4.182280144662398    
0.186171991786030000   3.8923245937504922   
0.191647638603266170   3.6066837691466453   
0.197123285420502340   3.3257315909405962   
0.202598932237738500   3.0499334801702824   
0.208074579054974670   2.7797524350795237   
0.213550225872210840   2.5154945439733014   
0.219025872689447000   2.2571984455763814   
0.224501519506683180   2.004658727907454    
0.229977166323919350   1.757595738693158    
0.235452813141155510   1.5158893314804898   
0.240928459958391680   1.2797419350968262   
0.246404106775627850   1.0496645675112992   
0.251879753592864000   0.8262776602749841   
0.257355400410100200   0.6100316948265493   
0.262831047227336360   0.40101185059799704  
0.268306694044572500   0.19895498605700093  
0.273782340861808700   0.00348989970419622  
0.273782340861808700   0.00348989970419622  
0.276520164270837500   0.09816837672693221  
0.279257987679866260   0.19016421199626776  
0.281995811088895040   0.2793360329912451   
0.284733634497923800   0.3655947404848282   
0.287471457906952600   0.4488900072006604   
0.290209281315981400   0.529205969231696    
0.292947104725010200   0.6065528521153464   
0.295684928134038960   0.6809557902872618   
0.298422751543067740   0.7524425195092924   
0.301160574952096500   0.8210318034894679   
0.303898398361125300   0.8867243690482891   
0.306636221770154100   0.9494977776048125   
0.309374045179182900   1.0093061010325073   
0.312111868588211660   1.0660845756933353   
0.314849691997240440   1.119758679658757    
0.317587515406269200   1.1702564216089824   
0.320325338815298000   1.21752214323896     
0.323063162224326800   1.2615298932753336   
0.325800985633355600   1.3022944673966264   
0.328538809042384360   1.3398785193966725   
0.331276632451413140   1.374394688583737    
0.334014455860441930   1.4060023765521408   
0.336752279269470700   1.4348995416335284   
0.339490102678499500   1.461310554240004    
0.342227926087528300   1.4854716739198779   
0.344965749496557060   1.5076159967356697   
0.347703572905585840   1.5279597419299573   
0.350441396314614630   1.5466915021944037   
0.353179219723643400   1.5639656138235716   
0.355917043132672200   1.5799001857265416   
0.358654866541701000   1.5945796546710012   
0.361392689950729760   1.608061109336022    
0.364130513359758550   1.6203831393301942   
0.366868336768787330   1.6315756853994292   
0.369606160177816100   1.64166932818485     
0.372343983586844900   1.650702651557879    
0.375081806995873700   1.6587267125857503   
0.377819630404902460   1.665806173942132    
0.380557453813931250   1.6720172186100486   
0.383295277222960030   1.6774428798966852   
0.386033100631988800   1.6821668018257252   
0.388770924041017600   1.686266639142464    
0.391508747450046400   1.6898082880090062   
0.394246570859075160   1.6928419192904463   
0.396984394268103950   1.6954004107078622   
0.399722217677132730   1.697500311782879    
0.402460041086161500   1.6991450089776834   
0.405197864495190300   1.7003293687864707   
0.407935687904219100   1.7010448895029064   
0.410673511313247860   1.7012843275972733   
0.410673511313247860   1.7012843275972733   
0.415415607980092470   1.721255827960434    
0.420157704646937100   1.780271374946399    
0.424899801313781700   1.8758354547524625   
0.429641897980626300   2.004362403630287    
0.434383994647470900   2.1617733564640598   
0.439126091314315500   2.343994562858503    
0.443868187981160100   2.547262111454094    
0.448610284648004730   2.7682180605689464   
0.453352381314849340   3.0038361787849945   
0.458094477981693950   3.2512637694348125   
0.462836574648538560   3.507709086981817    
0.467578671315383170   3.7705096642261715   
0.472320767982227800   4.037451888945632    
0.477062864649072400   4.307277734629703    
0.481804961315917000   4.580162142292127    
0.486547057982761600   4.857858211175487    
0.491289154649606200   5.143260258236775    
0.496031251316450800   5.439341972256824    
0.500773347983295400   5.7477214591874155   
0.505515444650140000   6.067356608195646    
0.510257541316984500   6.393946511414381    
0.514999637983829100   6.72043518252545     
0.519741734650673600   7.038620450851081    
0.524483831317518200   7.341409443618934    
0.529225927984362700   7.624932030821421    
0.533968024651207300   7.889692127335028    
0.538710121318051800   8.140255232693637    
0.543452217984896400   8.383533020095859    
0.548194314651741000   8.626297184751138    
0.552936411318585500   8.87287227592819     
0.557678507985430100   9.123865384276177    
0.562420604652274600   9.376333049002548    
0.567162701319119200   9.625184202533967    
0.571904797985963700   9.86514654124518     
0.576646894652808300   10.092470467372813   
0.581388991319652800   10.30574276576501    
0.586131087986497400   10.505619372979954   
0.590873184653341900   10.693761752787864   
0.595615281320186500   10.871565295571845   
0.600357377987031000   11.039274861906453   
0.605099474653875600   11.195813481888713   
0.609841571320720100   11.339263903158425   
0.614583667987564700   11.46764426160521    
0.619325764654409200   11.579545279644726   
0.624067861321253800   11.674350597818698   
0.628809957988098400   11.752030867530893   
0.633552054654942900   11.812729351931901   
0.638294151321787500   11.856426562032107   
0.643036247988632000   11.882866231796372   
0.647778344655476600   11.891727330103645   

