# n = band, j = orbital, E_n: energy, W_jn: weight
# k E_0 W_00 W_10 ... W_M0
# k E_1 W_01 W_11 ... W_M1
# ...
# k E_d W_0d W_1d ... W_dd
# Emax = 11.705427330103646
# Emin = -8.066259617775291
# num_wann = 2
# shifted by fermi energy = -0.1863 [eV] 

0.000000000000000000   -7.879959617775291   0.4999999999996237 0.5000000000003761
0.005475646817236179   -7.875495456360652   0.49999999999950645 0.5000000000004935
0.010951293634472357   -7.862331337024522   0.4999999999994047 0.5000000000005954
0.016426940451708536   -7.841068473244682   0.4999999999993279 0.5000000000006719
0.021902587268944715   -7.8124621069423235  0.49999999999928035 0.5000000000007196
0.027378234086180894   -7.777152338919563   0.49999999999925065 0.5000000000007493
0.032853880903417070   -7.735445674473137   0.4999999999992147 0.5000000000007851
0.038329527720653250   -7.6872240600081465  0.49999999999914924 0.5000000000008505
0.043805174537889430   -7.632005442787872   0.49999999999905187 0.5000000000009479
0.049280821355125610   -7.569122263389548   0.49999999999895295 0.5000000000010472
0.054756468172361794   -7.497945331842751   0.49999999999890476 0.5000000000010952
0.060232114989597976   -7.418073422730816   0.49999999999895295 0.5000000000010468
0.065707761806834160   -7.329431960267928   0.49999999999910244 0.5000000000008975
0.071183408624070340   -7.232263635368113   0.49999999999930045 0.5000000000006997
0.076659055441306520   -7.127031863617839   0.49999999999945305 0.5000000000005468
0.082134702258542700   -7.0142811072571325  0.4999999999994741 0.5000000000005259
0.087610349075778890   -6.894501759223099   0.49999999999933686 0.5000000000006631
0.093085995893015070   -6.768035607110519   0.49999999999910416 0.5000000000008956
0.098561642710251250   -6.635039180335366   0.499999999998909 0.500000000001091
0.104037289527487430   -6.495504112194172   0.4999999999988894 0.5000000000011106
0.109512936344723620   -6.349320081725391   0.4999999999991106 0.5000000000008894
0.114988583161959800   -6.19635780262424    0.49999999999951916 0.5000000000004807
0.120464229979195980   -6.036546681594102   0.4999999999999613 0.5000000000000389
0.125939876796432150   -5.869924544339015   0.5000000000002662 0.4999999999997336
0.131415523613668320   -5.696645904332191   0.5000000000003582 0.49999999999964195
0.136891170430904490   -5.51694974734178    0.5000000000003277 0.4999999999996722
0.142366817248140650   -5.331103654740156   0.5000000000004168 0.49999999999958306
0.147842464065376820   -5.1393515747063265  0.5000000000009012 0.49999999999909867
0.153318110882613000   -4.941891461802034   0.5000000000019197 0.4999999999980803
0.158793757699849160   -4.738894786162532   0.5000000000033336 0.4999999999966663
0.164269404517085330   -4.530558014056395   0.5000000000047057 0.4999999999952943
0.169745051334321500   -4.317157456345744   0.5000000000054324 0.4999999999945677
0.175220698151557660   -4.099074296667648   0.5000000000049969 0.4999999999950031
0.180696344968793830   -3.8767706613531114  0.5000000000032361 0.499999999996764
0.186171991786030000   -3.6507246903878774  0.5000000000004929 0.49999999999950706
0.191647638603266170   -3.421358812709754   0.4999999999975622 0.5000000000024378
0.197123285420502340   -3.1890055688493852  0.4999999999954226 0.5000000000045773
0.202598932237738500   -2.9539413997488078  0.4999999999948532 0.5000000000051467
0.208074579054974670   -2.716485586681048   0.49999999999608913 0.5000000000039106
0.213550225872210840   -2.4771251495128555  0.49999999999867634 0.5000000000013235
0.219025872689447000   -2.2366066385844716  0.5000000000016039 0.4999999999983959
0.224501519506683180   -1.9959449116908654  0.5000000000036793 0.4999999999963207
0.229977166323919350   -1.756335064678773   0.5000000000040046 0.49999999999599537
0.235452813141155510   -1.5189999784440649  0.5000000000023651 0.49999999999763506
0.240928459958391680   -1.2850391846543903  0.4999999999993742 0.5000000000006257
0.246404106775627850   -1.055347135653491   0.49999999999633 0.5000000000036698
0.251879753592864000   -0.8306378184335633  0.49999999999486683 0.5000000000051333
0.257355400410100200   -0.6115623898414503  0.4999999999966575 0.5000000000033424
0.262831047227336360   -0.3988616006737201  0.5000000000038174 0.4999999999961827
0.268306694044572500   -0.19347731891579337 0.5000000000243092 0.4999999999756908
0.273782340861808700   0.0034341074583540687 0.5000002292802321 0.499999770719768
0.273782340861808700   0.0034341074583540687 0.5000002292802321 0.499999770719768
0.276520164270837500   -0.09168667466325878 0.5000000000613588 0.4999999999386412
0.279257987679866260   -0.18509126392177336 0.5000000000251463 0.4999999999748536
0.281995811088895040   -0.27672889015317115 0.5000000000116391 0.499999999988361
0.284733634497923800   -0.3665552648996123  0.5000000000043355 0.49999999999566425
0.287471457906952600   -0.45452251919942166 0.5000000000000007 0.4999999999999996
0.290209281315981400   -0.5405838855832376  0.4999999999975567 0.5000000000024435
0.292947104725010200   -0.6246985930452508  0.4999999999964939 0.5000000000035061
0.295684928134038960   -0.7068363199923422  0.4999999999964785 0.5000000000035217
0.298422751543067740   -0.7869805989538022  0.49999999999722994 0.5000000000027699
0.301160574952096500   -0.8651307013358785  0.49999999999848443 0.5000000000015157
0.303898398361125300   -0.9413017311946655  0.49999999999998923 0.5000000000000108
0.306636221770154100   -1.0155228939309486  0.5000000000015108 0.49999999999848915
0.309374045179182900   -1.0878341438846189  0.5000000000028495 0.49999999999715067
0.312111868588211660   -1.1582816197932804  0.5000000000038514 0.49999999999614864
0.314849691997240440   -1.2269124212536486  0.5000000000044196 0.49999999999558026
0.317587515406269200   -1.2937693455324724  0.500000000004518 0.4999999999954821
0.320325338815298000   -1.358886187546676   0.5000000000041721 0.499999999995828
0.323063162224326800   -1.42228411371342    0.5000000000034603 0.4999999999965399
0.325800985633355600   -1.4839694694693641  0.500000000002503 0.49999999999749734
0.328538809042384360   -1.5439331937773362  0.5000000000014458 0.4999999999985543
0.331276632451413140   -1.602151817854333   0.5000000000004415 0.4999999999995584
0.334014455860441930   -1.6585898449321503  0.49999999999963174 0.5000000000003686
0.336752279269470700   -1.7132031645868158  0.4999999999991295 0.5000000000008706
0.339490102678499500   -1.765943064304819   0.4999999999990076 0.5000000000009925
0.342227926087528300   -1.8167603699085701  0.499999999999288 0.5000000000007122
0.344965749496557060   -1.865609274245423   0.49999999999994277 0.5000000000000574
0.347703572905585840   -1.9124504913776834  0.5000000000008958 0.4999999999991043
0.350441396314614630   -1.9572534866218405  0.5000000000020332 0.49999999999796646
0.353179219723643400   -1.999997663045329   0.5000000000032184 0.4999999999967815
0.355917043132672200   -2.040672513939019   0.5000000000043078 0.4999999999956924
0.358654866541701000   -2.0792768622232716  0.5000000000051689 0.499999999994831
0.361392689950729760   -2.1158173899998394  0.5000000000056971 0.49999999999430267
0.364130513359758550   -2.150306708282377   0.5000000000058278 0.49999999999417205
0.366868336768787330   -2.182761227633131   0.5000000000055442 0.49999999999445593
0.369606160177816100   -2.213199069169042   0.5000000000048793 0.4999999999951205
0.372343983586844900   -2.2416382099524093  0.5000000000039129 0.4999999999960868
0.375081806995873700   -2.2680949969628363  0.5000000000027612 0.49999999999723893
0.377819630404902460   -2.292583099833995   0.5000000000015631 0.49999999999843675
0.380557453813931250   -2.3151129133033455  0.5000000000004637 0.4999999999995364
0.383295277222960030   -2.335691372426985   0.49999999999959827 0.5000000000004016
0.386033100631988800   -2.3543221105754757  0.4999999999990742 0.5000000000009258
0.388770924041017600   -2.371005872583029   0.49999999999896033 0.5000000000010396
0.391508747450046400   -2.385741091381413   0.499999999999277 0.5000000000007226
0.394246570859075160   -2.398524542895951   0.4999999999999955 0.5000000000000048
0.396984394268103950   -2.409352007444687   0.5000000000010407 0.4999999999989588
0.399722217677132730   -2.4182188831781346  0.5000000000022996 0.49999999999770034
0.402460041086161500   -2.425120715540959   0.5000000000036356 0.4999999999963641
0.405197864495190300   -2.4300536240617587  0.5000000000049045 0.4999999999950951
0.407935687904219100   -2.433014622028084   0.5000000000059714 0.49999999999402855
0.410673511313247860   -2.434001834222436   0.5000000000067253 0.4999999999932747
0.410673511313247860   -2.434001834222436   0.5000000000067253 0.4999999999932747
0.415415607980092470   -2.4504051487291165  0.5000000000078593 0.49999999999214034
0.420157704646937100   -2.498617199940976   0.5000000000075812 0.49999999999241856
0.424899801313781700   -2.575890398857263   0.5000000000061334 0.49999999999386696
0.429641897980626300   -2.6783415733328617  0.5000000000039042 0.4999999999960954
0.434383994647470900   -2.8016592891018606  0.5000000000013236 0.49999999999867634
0.439126091314315500   -2.9416649640664656  0.4999999999988219 0.5000000000011781
0.443868187981160100   -3.0946287551490617  0.4999999999968216 0.5000000000031785
0.448610284648004730   -3.2573673566090804  0.4999999999957033 0.5000000000042969
0.453352381314849340   -3.427210361037228   0.4999999999957385 0.5000000000042613
0.458094477981693950   -3.60192261637896    0.49999999999700573 0.5000000000029944
0.462836574648538560   -3.7796388409295916  0.49999999999933575 0.500000000000664
0.467578671315383170   -3.9588277441403488  0.500000000002321 0.499999999997679
0.472320767982227800   -4.13827310889105    0.5000000000053952 0.49999999999460476
0.477062864649072400   -4.31704780114027    0.5000000000079676 0.4999999999920319
0.481804961315917000   -4.494463473743637   0.5000000000095641 0.499999999990436
0.486547057982761600   -4.669995885894811   0.5000000000099379 0.49999999999006217
0.491289154649606200   -4.843202078967363   0.5000000000091179 0.4999999999908819
0.496031251316450800   -5.0136525253916     0.5000000000073777 0.4999999999926222
0.500773347983295400   -5.180896443109873   0.5000000000051459 0.49999999999485395
0.505515444650140000   -5.344465799766426   0.500000000002884 0.499999999997116
0.510257541316984500   -5.503910651996776   0.5000000000009747 0.49999999999902534
0.514999637983829100   -5.658851381258677   0.4999999999996515 0.5000000000003486
0.519741734650673600   -5.809032153741687   0.49999999999898137 0.5000000000010186
0.524483831317518200   -5.954359285175963   0.49999999999889 0.5000000000011098
0.529225927984362700   -6.094904672533879   0.4999999999992111 0.5000000000007889
0.533968024651207300   -6.230853746042912   0.4999999999997385 0.5000000000002615
0.538710121318051800   -6.362392042357941   0.500000000000273 0.4999999999997267
0.543452217984896400   -6.489559486607787   0.5000000000006581 0.49999999999934186
0.548194314651741000   -6.612139467455034   0.5000000000008047 0.49999999999919525
0.552936411318585500   -6.729656197277364   0.5000000000007008 0.499999999999299
0.557678507985430100   -6.841507734340651   0.5000000000004053 0.4999999999995944
0.562420604652274600   -6.9471853428076615  0.5000000000000245 0.4999999999999754
0.567162701319119200   -7.0464757871045105  0.4999999999996763 0.5000000000003235
0.571904797985963700   -7.1395486026620505  0.49999999999945244 0.5000000000005477
0.576646894652808300   -7.2268859490072295  0.49999999999939054 0.5000000000006094
0.581388991319652800   -7.3090812663400415  0.49999999999946637 0.5000000000005339
0.586131087986497400   -7.386585237690137   0.49999999999960815 0.5000000000003917
0.590873184653341900   -7.459501297876178   0.49999999999972733 0.500000000000273
0.595615281320186500   -7.527520781138114   0.4999999999997586 0.5000000000002416
0.600357377987031000   -7.590035136513101   0.49999999999968525 0.5000000000003149
0.605099474653875600   -7.646382998292199   0.49999999999954503 0.500000000000455
0.609841571320720100   -7.696121472947484   0.49999999999941 0.5000000000005896
0.614583667987564700   -7.739194958394845   0.49999999999935113 0.500000000000649
0.619325764654409200   -7.775923683151806   0.49999999999940314 0.5000000000005967
0.624067861321253800   -7.806822327677142   0.49999999999954836 0.5000000000004517
0.628809957988098400   -7.832340926960758   0.49999999999972405 0.5000000000002762
0.633552054654942900   -7.852655869327305   0.49999999999985184 0.5000000000001477
0.638294151321787500   -7.8676114273519735  0.4999999999998751 0.5000000000001248
0.643036247988632000   -7.876834916078129   0.49999999999978495 0.5000000000002152
0.647778344655476600   -7.879959617775291   0.4999999999996237 0.5000000000003761

0.000000000000000000   11.891727330103645   0.5000000000003761 0.4999999999996237
0.005475646817236179   11.879615007053687   0.5000000000004935 0.49999999999950645
0.010951293634472357   11.843511205501098   0.5000000000005954 0.4999999999994047
0.016426940451708536   11.784070610271417   0.5000000000006719 0.4999999999993279
0.021902587268944715   11.70224320907786    0.5000000000007196 0.49999999999928035
0.027378234086180894   11.59909390103266    0.5000000000007493 0.49999999999925065
0.032853880903417070   11.475616939467574   0.5000000000007851 0.4999999999992147
0.038329527720653250   11.332609284732648   0.5000000000008505 0.49999999999914924
0.043805174537889430   11.170660212366755   0.5000000000009479 0.49999999999905187
0.049280821355125610   10.990277189694545   0.5000000000010472 0.49999999999895295
0.054756468172361794   10.7921084506411     0.5000000000010952 0.49999999999890476
0.060232114989597976   10.577167341507646   0.5000000000010468 0.49999999999895295
0.065707761806834160   10.346944844641872   0.5000000000008975 0.49999999999910244
0.071183408624070340   10.103333678773959   0.5000000000006997 0.49999999999930045
0.076659055441306520   9.848370519874909    0.5000000000005468 0.49999999999945305
0.082134702258542700   9.583894445106672    0.5000000000005259 0.4999999999994741
0.087610349075778890   9.31127141740244     0.5000000000006631 0.49999999999933686
0.093085995893015070   9.031314317361012    0.5000000000008956 0.49999999999910416
0.098561642710251250   8.744439884097556    0.500000000001091 0.499999999998909
0.104037289527487430   8.45098964837586     0.5000000000011106 0.4999999999988894
0.109512936344723620   8.151560298141401    0.5000000000008894 0.4999999999991106
0.114988583161959800   7.847184056626731    0.5000000000004807 0.49999999999951916
0.120464229979195980   7.539275887552266    0.5000000000000389 0.4999999999999613
0.125939876796432150   7.229382330460201    0.4999999999997336 0.5000000000002662
0.131415523613668320   6.9188642229249      0.49999999999964195 0.5000000000003582
0.136891170430904490   6.608671392104135    0.4999999999996722 0.5000000000003277
0.142366817248140650   6.299310029421127    0.49999999999958306 0.5000000000004168
0.147842464065376820   5.99099702431309     0.49999999999909867 0.5000000000009012
0.153318110882613000   5.683900082581542    0.4999999999980803 0.5000000000019197
0.158793757699849160   5.37832958922355     0.4999999999966663 0.5000000000033336
0.164269404517085330   5.074791940416731    0.4999999999952943 0.5000000000047057
0.169745051334321500   4.773904072348308    0.4999999999945677 0.5000000000054324
0.175220698151557660   4.476249503464689    0.4999999999950031 0.5000000000049969
0.180696344968793830   4.182280144662398    0.499999999996764 0.5000000000032361
0.186171991786030000   3.8923245937504922   0.49999999999950706 0.5000000000004929
0.191647638603266170   3.6066837691466453   0.5000000000024378 0.4999999999975622
0.197123285420502340   3.3257315909405962   0.5000000000045773 0.4999999999954226
0.202598932237738500   3.0499334801702824   0.5000000000051467 0.4999999999948532
0.208074579054974670   2.7797524350795237   0.5000000000039106 0.49999999999608913
0.213550225872210840   2.5154945439733014   0.5000000000013235 0.49999999999867634
0.219025872689447000   2.2571984455763814   0.4999999999983959 0.5000000000016039
0.224501519506683180   2.004658727907454    0.4999999999963207 0.5000000000036793
0.229977166323919350   1.757595738693158    0.49999999999599537 0.5000000000040046
0.235452813141155510   1.5158893314804898   0.49999999999763506 0.5000000000023651
0.240928459958391680   1.2797419350968262   0.5000000000006257 0.4999999999993742
0.246404106775627850   1.0496645675112992   0.5000000000036698 0.49999999999633
0.251879753592864000   0.8262776602749841   0.5000000000051333 0.49999999999486683
0.257355400410100200   0.6100316948265493   0.5000000000033424 0.4999999999966575
0.262831047227336360   0.40101185059799704  0.4999999999961827 0.5000000000038174
0.268306694044572500   0.19895498605700093  0.4999999999756908 0.5000000000243092
0.273782340861808700   0.00348989970419622  0.4999997707197678 0.5000002292802322
0.273782340861808700   0.00348989970419622  0.4999997707197678 0.5000002292802322
0.276520164270837500   0.09816837672693221  0.499999999938641 0.5000000000613587
0.279257987679866260   0.19016421199626776  0.4999999999748536 0.5000000000251463
0.281995811088895040   0.2793360329912451   0.4999999999883608 0.5000000000116394
0.284733634497923800   0.3655947404848282   0.49999999999566425 0.5000000000043354
0.287471457906952600   0.4488900072006604   0.49999999999999944 0.5000000000000007
0.290209281315981400   0.529205969231696    0.5000000000024433 0.4999999999975565
0.292947104725010200   0.6065528521153464   0.5000000000035062 0.49999999999649375
0.295684928134038960   0.6809557902872618   0.5000000000035216 0.49999999999647865
0.298422751543067740   0.7524425195092924   0.5000000000027699 0.49999999999722977
0.301160574952096500   0.8210318034894679   0.5000000000015156 0.4999999999984846
0.303898398361125300   0.8867243690482891   0.5000000000000108 0.49999999999998923
0.306636221770154100   0.9494977776048125   0.499999999998489 0.500000000001511
0.309374045179182900   1.0093061010325073   0.49999999999715067 0.5000000000028493
0.312111868588211660   1.0660845756933353   0.4999999999961488 0.5000000000038511
0.314849691997240440   1.119758679658757    0.4999999999955804 0.5000000000044196
0.317587515406269200   1.1702564216089824   0.49999999999548195 0.500000000004518
0.320325338815298000   1.21752214323896     0.49999999999582784 0.5000000000041723
0.323063162224326800   1.2615298932753336   0.4999999999965396 0.5000000000034607
0.325800985633355600   1.3022944673966264   0.499999999997497 0.5000000000025031
0.328538809042384360   1.3398785193966725   0.49999999999855416 0.5000000000014458
0.331276632451413140   1.374394688583737    0.4999999999995586 0.5000000000004414
0.334014455860441930   1.4060023765521408   0.5000000000003684 0.4999999999996319
0.336752279269470700   1.4348995416335284   0.5000000000008705 0.4999999999991295
0.339490102678499500   1.461310554240004    0.5000000000009925 0.4999999999990073
0.342227926087528300   1.4854716739198779   0.500000000000712 0.49999999999928835
0.344965749496557060   1.5076159967356697   0.5000000000000571 0.4999999999999431
0.347703572905585840   1.5279597419299573   0.49999999999910416 0.5000000000008962
0.350441396314614630   1.5466915021944037   0.4999999999979666 0.5000000000020334
0.353179219723643400   1.5639656138235716   0.4999999999967815 0.5000000000032183
0.355917043132672200   1.5799001857265416   0.4999999999956924 0.5000000000043078
0.358654866541701000   1.5945796546710012   0.499999999994831 0.5000000000051689
0.361392689950729760   1.608061109336022    0.49999999999430267 0.5000000000056969
0.364130513359758550   1.6203831393301942   0.49999999999417205 0.5000000000058279
0.366868336768787330   1.6315756853994292   0.49999999999445593 0.5000000000055442
